#Compound = Hypersthene     [Mg1.502Fe0.498Si2O6]
#energy [keV], cross section [cm^2 H^-1]
#       energy     extinction      scattering      absorption
       6.7000000   1.9769373e-24   1.3714090e-24   6.0552832e-25
       6.7002000   1.9768034e-24   1.3713278e-24   6.0547565e-25
       6.7004000   1.9766697e-24   1.3712456e-24   6.0542407e-25
       6.7006000   1.9765102e-24   1.3711389e-24   6.0537135e-25
       6.7008000   1.9763766e-24   1.3710578e-24   6.0531887e-25
       6.7010000   1.9762429e-24   1.3709763e-24   6.0526654e-25
       6.7012000   1.9761090e-24   1.3708943e-24   6.0521462e-25
       6.7014000   1.9759497e-24   1.3707878e-24   6.0516195e-25
       6.7016000   1.9758160e-24   1.3707062e-24   6.0510982e-25
       6.7018000   1.9756823e-24   1.3706244e-24   6.0505792e-25
       6.7020000   1.9755485e-24   1.3705428e-24   6.0500566e-25
       6.7022000   1.9753892e-24   1.3704365e-24   6.0495270e-25
       6.7024000   1.9752556e-24   1.3703545e-24   6.0490112e-25
       6.7026000   1.9751219e-24   1.3702732e-24   6.0484866e-25
       6.7028000   1.9749628e-24   1.3701662e-24   6.0479664e-25
       6.7030000   1.9748290e-24   1.3700849e-24   6.0474413e-25
       6.7032000   1.9746953e-24   1.3700038e-24   6.0469150e-25
       6.7034000   1.9745618e-24   1.3699227e-24   6.0463912e-25
       6.7036000   1.9744025e-24   1.3698158e-24   6.0458670e-25
       6.7038000   1.9742690e-24   1.3697339e-24   6.0453504e-25
       6.7040000   1.9741354e-24   1.3696529e-24   6.0448244e-25
       6.7042000   1.9739762e-24   1.3695457e-24   6.0443052e-25
       6.7044000   1.9738427e-24   1.3694643e-24   6.0437841e-25
       6.7046000   1.9737091e-24   1.3693834e-24   6.0432571e-25
       6.7048000   1.9735756e-24   1.3693019e-24   6.0427372e-25
       6.7050000   1.9734165e-24   1.3691952e-24   6.0422124e-25
       6.7052000   1.9732828e-24   1.3691138e-24   6.0416905e-25
       6.7054000   1.9731495e-24   1.3690323e-24   6.0411719e-25
       6.7056000   1.9730158e-24   1.3689511e-24   6.0406470e-25
       6.7058000   1.9728569e-24   1.3688441e-24   6.0401285e-25
       6.7060000   1.9727234e-24   1.3687630e-24   6.0396039e-25
       6.7062000   1.9725898e-24   1.3686818e-24   6.0390798e-25
       6.7064000   1.9724309e-24   1.3685751e-24   6.0385583e-25
       6.7066000   1.9722974e-24   1.3684938e-24   6.0380360e-25
       6.7068000   1.9721640e-24   1.3684127e-24   6.0375133e-25
       6.7070000   1.9720305e-24   1.3683317e-24   6.0369878e-25
       6.7072000   1.9718715e-24   1.3682243e-24   6.0364725e-25
       6.7074000   1.9717383e-24   1.3681434e-24   6.0359487e-25
       6.7076000   1.9716048e-24   1.3680616e-24   6.0354314e-25
       6.7078000   1.9714460e-24   1.3679557e-24   6.0349029e-25
       6.7080000   1.9713125e-24   1.3678743e-24   6.0343816e-25
       6.7082000   1.9711790e-24   1.3677928e-24   6.0338619e-25
       6.7084000   1.9710458e-24   1.3677123e-24   6.0333353e-25
       6.7086000   1.9708869e-24   1.3676054e-24   6.0328153e-25
       6.7088000   1.9707537e-24   1.3675246e-24   6.0322911e-25
       6.7090000   1.9706203e-24   1.3674423e-24   6.0317793e-25
       6.7092000   1.9704614e-24   1.3673359e-24   6.0312551e-25
       6.7094000   1.9703282e-24   1.3672549e-24   6.0307326e-25
       6.7096000   1.9701948e-24   1.3671738e-24   6.0302101e-25
       6.7098000   1.9700616e-24   1.3670929e-24   6.0296872e-25
       6.7100000   1.9699029e-24   1.3669861e-24   6.0291678e-25
       6.7102000   1.9697695e-24   1.3669052e-24   6.0286427e-25
       6.7104000   1.9696363e-24   1.3668245e-24   6.0281179e-25
       6.7106000   1.9694776e-24   1.3667174e-24   6.0276012e-25
       6.7108000   1.9693444e-24   1.3666360e-24   6.0270833e-25
       6.7110000   1.9692111e-24   1.3665556e-24   6.0265552e-25
       6.7112000   1.9690779e-24   1.3664746e-24   6.0260327e-25
       6.7114000   1.9689193e-24   1.3663676e-24   6.0255170e-25
       6.7116000   1.9687860e-24   1.3662863e-24   6.0249967e-25
       6.7118000   1.9686530e-24   1.3662051e-24   6.0244782e-25
       6.7120000   1.9684943e-24   1.3660989e-24   6.0239541e-25
       6.7122000   1.9683610e-24   1.3660178e-24   6.0234321e-25
       6.7124000   1.9682280e-24   1.3659365e-24   6.0229152e-25
       6.7126000   1.9680947e-24   1.3658557e-24   6.0223907e-25
       6.7128000   1.9679363e-24   1.3657497e-24   6.0218658e-25
       6.7130000   1.9678031e-24   1.3656683e-24   6.0213480e-25
       6.7132000   1.9676700e-24   1.3655880e-24   6.0208199e-25
       6.7134000   1.9675116e-24   1.3654809e-24   6.0203066e-25
       6.7136000   1.9673784e-24   1.3653998e-24   6.0197863e-25
       6.7138000   1.9672455e-24   1.3653199e-24   6.0192557e-25
       6.7140000   1.9671123e-24   1.3652387e-24   6.0187359e-25
       6.7142000   1.9669537e-24   1.3651319e-24   6.0182179e-25
       6.7144000   1.9668208e-24   1.3650511e-24   6.0176971e-25
       6.7146000   1.9666877e-24   1.3649701e-24   6.0171764e-25
       6.7148000   1.9665294e-24   1.3648638e-24   6.0166556e-25
       6.7150000   1.9663963e-24   1.3647827e-24   6.0161365e-25
       6.7152000   1.9662633e-24   1.3647017e-24   6.0156164e-25
       6.7154000   1.9661304e-24   1.3646209e-24   6.0150946e-25
       6.7156000   1.9659719e-24   1.3645143e-24   6.0145759e-25
       6.7158000   1.9658390e-24   1.3644338e-24   6.0140519e-25
       6.7160000   1.9657061e-24   1.3643523e-24   6.0135381e-25
       6.7162000   1.9655477e-24   1.3642462e-24   6.0130144e-25
       6.7164000   1.9654148e-24   1.3641657e-24   6.0124909e-25
       6.7166000   1.9652818e-24   1.3640845e-24   6.0119726e-25
       6.7168000   1.9651491e-24   1.3640034e-24   6.0114563e-25
       6.7170000   1.9649906e-24   1.3638979e-24   6.0109271e-25
       6.7172000   1.9648577e-24   1.3638168e-24   6.0104084e-25
       6.7174000   1.9647249e-24   1.3637360e-24   6.0098896e-25
       6.7176000   1.9645666e-24   1.3636294e-24   6.0093714e-25
       6.7178000   1.9644338e-24   1.3635492e-24   6.0088460e-25
       6.7180000   1.9643010e-24   1.3634679e-24   6.0083304e-25
       6.7182000   1.9641681e-24   1.3633871e-24   6.0078096e-25
       6.7184000   1.9640099e-24   1.3632804e-24   6.0072952e-25
       6.7186000   1.9638770e-24   1.3632000e-24   6.0067706e-25
       6.7188000   1.9637443e-24   1.3631194e-24   6.0062489e-25
       6.7190000   1.9635860e-24   1.3630129e-24   6.0057315e-25
       6.7192000   1.9634532e-24   1.3629321e-24   6.0052109e-25
       6.7194000   1.9633206e-24   1.3628519e-24   6.0046877e-25
       6.7196000   1.9631878e-24   1.3627706e-24   6.0041722e-25
       6.7198000   1.9630298e-24   1.3626647e-24   6.0036513e-25
       6.7200000   1.9628969e-24   1.3625839e-24   6.0031304e-25
       6.7202000   1.9627642e-24   1.3625028e-24   6.0026138e-25
       6.7204000   1.9626062e-24   1.3623972e-24   6.0020900e-25
       6.7206000   1.9624734e-24   1.3623168e-24   6.0015661e-25
       6.7208000   1.9623408e-24   1.3622356e-24   6.0010520e-25
       6.7210000   1.9622081e-24   1.3621551e-24   6.0005301e-25
       6.7212000   1.9620500e-24   1.3620486e-24   6.0000136e-25
       6.7214000   1.9619175e-24   1.3619684e-24   5.9994903e-25
       6.7216000   1.9617848e-24   1.3618876e-24   5.9989719e-25
       6.7218000   1.9616269e-24   1.3617813e-24   5.9984554e-25
       6.7220000   1.9614942e-24   1.3617003e-24   5.9979386e-25
       6.7222000   1.9613615e-24   1.3616197e-24   5.9974175e-25
       6.7224000   1.9612290e-24   1.3615391e-24   5.9968989e-25
       6.7226000   1.9610710e-24   1.3614331e-24   5.9963789e-25
       6.7228000   1.9609385e-24   1.3613535e-24   5.9958500e-25
       6.7230000   1.9608059e-24   1.3612721e-24   5.9953373e-25
       6.7232000   1.9606478e-24   1.3611658e-24   5.9948202e-25
       6.7234000   1.9605154e-24   1.3610856e-24   5.9942984e-25
       6.7236000   1.9603829e-24   1.3610050e-24   5.9937787e-25
       6.7238000   1.9602504e-24   1.3609242e-24   5.9932618e-25
       6.7240000   1.9600925e-24   1.3608182e-24   5.9927436e-25
       6.7242000   1.9599599e-24   1.3607380e-24   5.9922199e-25
       6.7244000   1.9598275e-24   1.3606570e-24   5.9917047e-25
       6.7246000   1.9596697e-24   1.3605519e-24   5.9911781e-25
       6.7248000   1.9595373e-24   1.3604708e-24   5.9906651e-25
       6.7250000   1.9594048e-24   1.3603898e-24   5.9901494e-25
       6.7252000   1.9592469e-24   1.3602845e-24   5.9896240e-25
       6.7254000   1.9591146e-24   1.3602039e-24   5.9891070e-25
       6.7256000   1.9589821e-24   1.3601231e-24   5.9885899e-25
       6.7258000   1.9588498e-24   1.3600429e-24   5.9880691e-25
       6.7260000   1.9586920e-24   1.3599369e-24   5.9875511e-25
       6.7262000   1.9585595e-24   1.3598567e-24   5.9870289e-25
       6.7264000   1.9584272e-24   1.3597762e-24   5.9865105e-25
       6.7266000   1.9582694e-24   1.3596705e-24   5.9859895e-25
       6.7268000   1.9581372e-24   1.3595897e-24   5.9854753e-25
       6.7270000   1.9580048e-24   1.3595089e-24   5.9849590e-25
       6.7272000   1.9578724e-24   1.3594289e-24   5.9844355e-25
       6.7274000   1.9577148e-24   1.3593230e-24   5.9839183e-25
       6.7276000   1.9575825e-24   1.3592426e-24   5.9833989e-25
       6.7278000   1.9574503e-24   1.3591620e-24   5.9828825e-25
       6.7280000   1.9572925e-24   1.3590565e-24   5.9823606e-25
       6.7282000   1.9571602e-24   1.3589754e-24   5.9818481e-25
       6.7284000   1.9570281e-24   1.3588949e-24   5.9813321e-25
       6.7286000   1.9568704e-24   1.3587894e-24   5.9808102e-25
       6.7288000   1.9567383e-24   1.3587094e-24   5.9802888e-25
       6.7290000   1.9566060e-24   1.3586284e-24   5.9797756e-25
       6.7292000   1.9564737e-24   1.3585489e-24   5.9792483e-25
       6.7294000   1.9563162e-24   1.3584432e-24   5.9787306e-25
       6.7296000   1.9561839e-24   1.3583628e-24   5.9782110e-25
       6.7298000   1.9560519e-24   1.3582821e-24   5.9776981e-25
       6.7300000   1.9558943e-24   1.3581761e-24   5.9771821e-25
       6.7302000   1.9557621e-24   1.3580959e-24   5.9766626e-25
       6.7304000   1.9556301e-24   1.3580150e-24   5.9761504e-25
       6.7306000   1.9554978e-24   1.3579357e-24   5.9756220e-25
       6.7308000   1.9553405e-24   1.3578300e-24   5.9751047e-25
       6.7310000   1.9552083e-24   1.3577495e-24   5.9745874e-25
       6.7312000   1.9550761e-24   1.3576683e-24   5.9740785e-25
       6.7314000   1.9549188e-24   1.3575635e-24   5.9735524e-25
       6.7316000   1.9547867e-24   1.3574828e-24   5.9730384e-25
       6.7318000   1.9546547e-24   1.3574020e-24   5.9725266e-25
       6.7320000   1.9544973e-24   1.3572978e-24   5.9719947e-25
       6.7322000   1.9543651e-24   1.3572166e-24   5.9714847e-25
       6.7324000   1.9542332e-24   1.3571367e-24   5.9709650e-25
       6.7326000   1.9541011e-24   1.3570563e-24   5.9704474e-25
       6.7328000   1.9539438e-24   1.3569509e-24   5.9699291e-25
       6.7330000   1.9538118e-24   1.3568704e-24   5.9694136e-25
       6.7332000   1.9536797e-24   1.3567910e-24   5.9688867e-25
       6.7334000   1.9535225e-24   1.3566851e-24   5.9683738e-25
       6.7336000   1.9533905e-24   1.3566050e-24   5.9678552e-25
       6.7338000   1.9532586e-24   1.3565246e-24   5.9673391e-25
       6.7340000   1.9531012e-24   1.3564192e-24   5.9668199e-25
       6.7342000   1.9529693e-24   1.3563387e-24   5.9663061e-25
       6.7344000   1.9528374e-24   1.3562582e-24   5.9657920e-25
       6.7346000   1.9527054e-24   1.3561781e-24   5.9652729e-25
       6.7348000   1.9525484e-24   1.3560724e-24   5.9647592e-25
       6.7350000   1.9524163e-24   1.3559925e-24   5.9642387e-25
       6.7352000   1.9522844e-24   1.3559120e-24   5.9637240e-25
       6.7354000   1.9521272e-24   1.3558066e-24   5.9632059e-25
       6.7356000   1.9519953e-24   1.3557271e-24   5.9626823e-25
       6.7358000   1.9518636e-24   1.3556469e-24   5.9621664e-25
       6.7360000   1.9517064e-24   1.3555419e-24   5.9616453e-25
       6.7362000   1.9515745e-24   1.3554614e-24   5.9611314e-25
       6.7364000   1.9514428e-24   1.3553812e-24   5.9606165e-25
       6.7366000   1.9513109e-24   1.3553011e-24   5.9600978e-25
       6.7368000   1.9511540e-24   1.3551954e-24   5.9595862e-25
       6.7370000   1.9510221e-24   1.3551158e-24   5.9590625e-25
       6.7372000   1.9508902e-24   1.3550362e-24   5.9585404e-25
       6.7374000   1.9507333e-24   1.3549307e-24   5.9580260e-25
       6.7376000   1.9506015e-24   1.3548501e-24   5.9575131e-25
       6.7378000   1.9504698e-24   1.3547703e-24   5.9569951e-25
       6.7380000   1.9503128e-24   1.3546646e-24   5.9564813e-25
       6.7382000   1.9501810e-24   1.3545844e-24   5.9559650e-25
       6.7384000   1.9500493e-24   1.3545043e-24   5.9554495e-25
       6.7386000   1.9499175e-24   1.3544242e-24   5.9549336e-25
       6.7388000   1.9497606e-24   1.3543191e-24   5.9544151e-25
       6.7390000   1.9496289e-24   1.3542397e-24   5.9538917e-25
       6.7392000   1.9494971e-24   1.3541597e-24   5.9533743e-25
       6.7394000   1.9493404e-24   1.3540540e-24   5.9528637e-25
       6.7396000   1.9492087e-24   1.3539741e-24   5.9523454e-25
       6.7398000   1.9490771e-24   1.3538944e-24   5.9518268e-25
       6.7400000   1.9489202e-24   1.3537888e-24   5.9513137e-25
       6.7402000   1.9487885e-24   1.3537096e-24   5.9507887e-25
       6.7404000   1.9486570e-24   1.3536288e-24   5.9502824e-25
       6.7406000   1.9485252e-24   1.3535490e-24   5.9497629e-25
       6.7408000   1.9483686e-24   1.3534442e-24   5.9492437e-25
       6.7410000   1.9482370e-24   1.3533643e-24   5.9487268e-25
       6.7412000   1.9481053e-24   1.3532838e-24   5.9482147e-25
       6.7414000   1.9479486e-24   1.3531784e-24   5.9477011e-25
       6.7416000   1.9478169e-24   1.3530990e-24   5.9471786e-25
       6.7418000   1.9476855e-24   1.3530187e-24   5.9466686e-25
       6.7420000   1.9475287e-24   1.3529139e-24   5.9461486e-25
       6.7422000   1.9473979e-24   1.3528336e-24   5.9456425e-25
       6.7424000   1.9472672e-24   1.3527532e-24   5.9451398e-25
       6.7426000   1.9471112e-24   1.3526493e-24   5.9446190e-25
       6.7428000   1.9469806e-24   1.3525695e-24   5.9441100e-25
       6.7430000   1.9468498e-24   1.3524884e-24   5.9436139e-25
       6.7432000   1.9467190e-24   1.3524087e-24   5.9431033e-25
       6.7434000   1.9465632e-24   1.3523043e-24   5.9425890e-25
       6.7436000   1.9464324e-24   1.3522245e-24   5.9420797e-25
       6.7438000   1.9463019e-24   1.3521448e-24   5.9415709e-25
       6.7440000   1.9461459e-24   1.3520400e-24   5.9410592e-25
       6.7442000   1.9460152e-24   1.3519595e-24   5.9405572e-25
       6.7444000   1.9458846e-24   1.3518798e-24   5.9400483e-25
       6.7446000   1.9457287e-24   1.3517747e-24   5.9395401e-25
       6.7448000   1.9455982e-24   1.3516947e-24   5.9390356e-25
       6.7450000   1.9454676e-24   1.3516153e-24   5.9385229e-25
       6.7452000   1.9453117e-24   1.3515102e-24   5.9380148e-25
       6.7454000   1.9451812e-24   1.3514302e-24   5.9375100e-25
       6.7456000   1.9450505e-24   1.3513508e-24   5.9369970e-25
       6.7458000   1.9449201e-24   1.3512708e-24   5.9364935e-25
       6.7460000   1.9447642e-24   1.3511658e-24   5.9359841e-25
       6.7462000   1.9446336e-24   1.3510865e-24   5.9354714e-25
       6.7464000   1.9445032e-24   1.3510064e-24   5.9349680e-25
       6.7466000   1.9443474e-24   1.3509016e-24   5.9344576e-25
       6.7468000   1.9442170e-24   1.3508219e-24   5.9339511e-25
       6.7470000   1.9440865e-24   1.3507420e-24   5.9334445e-25
       6.7472000   1.9439307e-24   1.3506370e-24   5.9329373e-25
       6.7474000   1.9438002e-24   1.3505579e-24   5.9324234e-25
       6.7476000   1.9436698e-24   1.3504777e-24   5.9319208e-25
       6.7478000   1.9435142e-24   1.3503726e-24   5.9314157e-25
       6.7480000   1.9433836e-24   1.3502923e-24   5.9309137e-25
       6.7482000   1.9432532e-24   1.3502137e-24   5.9303945e-25
       6.7484000   1.9431228e-24   1.3501343e-24   5.9298852e-25
       6.7486000   1.9429671e-24   1.3500288e-24   5.9293835e-25
       6.7488000   1.9428369e-24   1.3499490e-24   5.9288787e-25
       6.7490000   1.9427064e-24   1.3498700e-24   5.9283639e-25
       6.7492000   1.9425508e-24   1.3497643e-24   5.9278648e-25
       6.7494000   1.9424205e-24   1.3496856e-24   5.9273493e-25
       6.7496000   1.9422901e-24   1.3496060e-24   5.9268407e-25
       6.7498000   1.9421346e-24   1.3495010e-24   5.9263362e-25
       6.7500000   1.9420042e-24   1.3494206e-24   5.9258360e-25
       6.7502000   1.9418738e-24   1.3493408e-24   5.9253304e-25
       6.7504000   1.9417184e-24   1.3492368e-24   5.9248160e-25
       6.7506000   1.9415880e-24   1.3491572e-24   5.9243085e-25
       6.7508000   1.9414579e-24   1.3490775e-24   5.9238036e-25
       6.7510000   1.9413275e-24   1.3489984e-24   5.9232912e-25
       6.7512000   1.9411720e-24   1.3488930e-24   5.9227893e-25
       6.7514000   1.9410419e-24   1.3488142e-24   5.9222765e-25
       6.7516000   1.9409115e-24   1.3487343e-24   5.9217717e-25
       6.7518000   1.9407562e-24   1.3486294e-24   5.9212676e-25
       6.7520000   1.9406259e-24   1.3485497e-24   5.9207615e-25
       6.7522000   1.9404956e-24   1.3484702e-24   5.9202548e-25
       6.7524000   1.9403403e-24   1.3483654e-24   5.9197495e-25
       6.7526000   1.9402101e-24   1.3482864e-24   5.9192365e-25
       6.7528000   1.9400799e-24   1.3482069e-24   5.9187304e-25
       6.7530000   1.9399246e-24   1.3481021e-24   5.9182249e-25
       6.7532000   1.9397943e-24   1.3480228e-24   5.9177147e-25
       6.7534000   1.9396643e-24   1.3479428e-24   5.9172145e-25
       6.7536000   1.9395089e-24   1.3478386e-24   5.9167032e-25
       6.7538000   1.9393789e-24   1.3477590e-24   5.9161992e-25
       6.7540000   1.9392487e-24   1.3476795e-24   5.9156923e-25
       6.7542000   1.9391185e-24   1.3476001e-24   5.9151842e-25
       6.7544000   1.9389633e-24   1.3474957e-24   5.9146764e-25
       6.7546000   1.9388332e-24   1.3474161e-24   5.9141703e-25
       6.7548000   1.9387032e-24   1.3473371e-24   5.9136610e-25
       6.7550000   1.9385479e-24   1.3472318e-24   5.9131606e-25
       6.7552000   1.9384178e-24   1.3471528e-24   5.9126493e-25
       6.7554000   1.9382879e-24   1.3470736e-24   5.9121424e-25
       6.7556000   1.9381326e-24   1.3469685e-24   5.9116405e-25
       6.7558000   1.9380026e-24   1.3468897e-24   5.9111295e-25
       6.7560000   1.9378726e-24   1.3468098e-24   5.9106277e-25
       6.7562000   1.9377174e-24   1.3467060e-24   5.9101134e-25
       6.7564000   1.9375874e-24   1.3466268e-24   5.9096068e-25
       6.7566000   1.9374574e-24   1.3465467e-24   5.9091070e-25
       6.7568000   1.9373024e-24   1.3464428e-24   5.9085966e-25
       6.7570000   1.9371723e-24   1.3463635e-24   5.9080887e-25
       6.7572000   1.9370423e-24   1.3462834e-24   5.9075894e-25
       6.7574000   1.9369125e-24   1.3462046e-24   5.9070787e-25
       6.7576000   1.9367574e-24   1.3461006e-24   5.9065679e-25
       6.7578000   1.9366275e-24   1.3460206e-24   5.9060690e-25
       6.7580000   1.9364976e-24   1.3459411e-24   5.9055644e-25
       6.7582000   1.9363425e-24   1.3458372e-24   5.9050528e-25
       6.7584000   1.9362127e-24   1.3457582e-24   5.9045453e-25
       6.7586000   1.9360828e-24   1.3456782e-24   5.9040459e-25
       6.7588000   1.9359279e-24   1.3455740e-24   5.9035393e-25
       6.7590000   1.9357980e-24   1.3454952e-24   5.9030279e-25
       6.7592000   1.9356680e-24   1.3454153e-24   5.9025275e-25
       6.7594000   1.9355132e-24   1.3453110e-24   5.9020217e-25
       6.7596000   1.9353833e-24   1.3452323e-24   5.9015104e-25
       6.7598000   1.9352535e-24   1.3451527e-24   5.9010084e-25
       6.7600000   1.9350986e-24   1.3450479e-24   5.9005070e-25
       6.7602000   1.9349687e-24   1.3449690e-24   5.8999972e-25
       6.7604000   1.9348390e-24   1.3448895e-24   5.8994957e-25
       6.7606000   1.9346841e-24   1.3447851e-24   5.8989898e-25
       6.7608000   1.9345544e-24   1.3447062e-24   5.8984825e-25
