#Compound = Troilite   [FeS]
#energy [keV], cross section [cm^2 H^-1]
#      energy      extinction      scattering      absorption
       6.7000000   2.1120924e-24   1.2546786e-24   8.5741377e-25
       6.7002000   2.1119157e-24   1.2545729e-24   8.5734278e-25
       6.7004000   2.1117457e-24   1.2544735e-24   8.5727218e-25
       6.7006000   2.1115691e-24   1.2543678e-24   8.5720129e-25
       6.7008000   2.1113990e-24   1.2542685e-24   8.5713050e-25
       6.7010000   2.1112225e-24   1.2541628e-24   8.5705969e-25
       6.7012000   2.1110524e-24   1.2540636e-24   8.5698887e-25
       6.7014000   2.1108761e-24   1.2539580e-24   8.5691809e-25
       6.7016000   2.1107060e-24   1.2538586e-24   8.5684735e-25
       6.7018000   2.1105297e-24   1.2537530e-24   8.5677672e-25
       6.7020000   2.1103595e-24   1.2536537e-24   8.5670583e-25
       6.7022000   2.1101831e-24   1.2535481e-24   8.5663496e-25
       6.7024000   2.1100132e-24   1.2534488e-24   8.5656435e-25
       6.7026000   2.1098367e-24   1.2533433e-24   8.5649340e-25
       6.7028000   2.1096668e-24   1.2532441e-24   8.5642277e-25
       6.7030000   2.1094905e-24   1.2531385e-24   8.5635192e-25
       6.7032000   2.1093202e-24   1.2530393e-24   8.5628090e-25
       6.7034000   2.1091442e-24   1.2529337e-24   8.5621042e-25
       6.7036000   2.1089739e-24   1.2528345e-24   8.5613939e-25
       6.7038000   2.1087980e-24   1.2527291e-24   8.5606890e-25
       6.7040000   2.1086280e-24   1.2526299e-24   8.5599801e-25
       6.7042000   2.1084516e-24   1.2525244e-24   8.5592718e-25
       6.7044000   2.1082818e-24   1.2524252e-24   8.5585661e-25
       6.7046000   2.1081054e-24   1.2523198e-24   8.5578565e-25
       6.7048000   2.1079356e-24   1.2522206e-24   8.5571504e-25
       6.7050000   2.1077593e-24   1.2521152e-24   8.5564405e-25
       6.7052000   2.1075894e-24   1.2520160e-24   8.5557333e-25
       6.7054000   2.1074133e-24   1.2519107e-24   8.5550261e-25
       6.7056000   2.1072433e-24   1.2518115e-24   8.5543174e-25
       6.7058000   2.1070675e-24   1.2517062e-24   8.5536139e-25
       6.7060000   2.1068974e-24   1.2516071e-24   8.5529030e-25
       6.7062000   2.1067213e-24   1.2515017e-24   8.5521967e-25
       6.7064000   2.1065454e-24   1.2513964e-24   8.5514899e-25
       6.7066000   2.1063754e-24   1.2512973e-24   8.5507810e-25
       6.7068000   2.1061994e-24   1.2511920e-24   8.5500739e-25
       6.7070000   2.1060295e-24   1.2510929e-24   8.5493668e-25
       6.7072000   2.1058534e-24   1.2509876e-24   8.5486580e-25
       6.7074000   2.1056837e-24   1.2508886e-24   8.5479513e-25
       6.7076000   2.1055076e-24   1.2507833e-24   8.5472433e-25
       6.7078000   2.1053379e-24   1.2506843e-24   8.5465358e-25
       6.7080000   2.1051618e-24   1.2505791e-24   8.5458276e-25
       6.7082000   2.1049860e-24   1.2504738e-24   8.5451221e-25
       6.7084000   2.1048161e-24   1.2503748e-24   8.5444138e-25
       6.7086000   2.1046403e-24   1.2502696e-24   8.5437073e-25
       6.7088000   2.1044707e-24   1.2501706e-24   8.5430009e-25
       6.7090000   2.1042948e-24   1.2500654e-24   8.5422938e-25
       6.7092000   2.1041248e-24   1.2499664e-24   8.5415847e-25
       6.7094000   2.1039491e-24   1.2498613e-24   8.5408786e-25
       6.7096000   2.1037730e-24   1.2497561e-24   8.5401696e-25
       6.7098000   2.1036036e-24   1.2496572e-24   8.5394641e-25
       6.7100000   2.1034276e-24   1.2495520e-24   8.5387567e-25
       6.7102000   2.1032579e-24   1.2494531e-24   8.5380478e-25
       6.7104000   2.1030821e-24   1.2493480e-24   8.5373412e-25
       6.7106000   2.1029127e-24   1.2492491e-24   8.5366357e-25
       6.7108000   2.1027369e-24   1.2491440e-24   8.5359294e-25
       6.7110000   2.1025611e-24   1.2490389e-24   8.5352223e-25
       6.7112000   2.1023914e-24   1.2489401e-24   8.5345129e-25
       6.7114000   2.1022157e-24   1.2488349e-24   8.5338080e-25
       6.7116000   2.1020460e-24   1.2487362e-24   8.5330986e-25
       6.7118000   2.1018704e-24   1.2486311e-24   8.5323930e-25
       6.7120000   2.1016946e-24   1.2485260e-24   8.5316857e-25
       6.7122000   2.1015249e-24   1.2484272e-24   8.5309764e-25
       6.7124000   2.1013494e-24   1.2483221e-24   8.5302723e-25
       6.7126000   2.1011735e-24   1.2482172e-24   8.5295632e-25
       6.7128000   2.1010044e-24   1.2481184e-24   8.5288594e-25
       6.7130000   2.1008285e-24   1.2480134e-24   8.5281514e-25
       6.7132000   2.1006591e-24   1.2479146e-24   8.5274444e-25
       6.7134000   2.1004835e-24   1.2478097e-24   8.5267380e-25
       6.7136000   2.1003078e-24   1.2477047e-24   8.5260305e-25
       6.7138000   2.1001385e-24   1.2476060e-24   8.5253245e-25
       6.7140000   2.0999627e-24   1.2475011e-24   8.5246164e-25
       6.7142000   2.0997932e-24   1.2474024e-24   8.5239079e-25
       6.7144000   2.0996177e-24   1.2472974e-24   8.5232026e-25
       6.7146000   2.0994420e-24   1.2471925e-24   8.5224949e-25
       6.7148000   2.0992727e-24   1.2470939e-24   8.5217883e-25
       6.7150000   2.0990971e-24   1.2469889e-24   8.5210821e-25
       6.7152000   2.0989215e-24   1.2468841e-24   8.5203749e-25
       6.7154000   2.0987521e-24   1.2467854e-24   8.5196672e-25
       6.7156000   2.0985768e-24   1.2466805e-24   8.5189623e-25
       6.7158000   2.0984014e-24   1.2465757e-24   8.5182567e-25
       6.7160000   2.0982321e-24   1.2464771e-24   8.5175497e-25
       6.7162000   2.0980564e-24   1.2463724e-24   8.5168399e-25
       6.7164000   2.0978811e-24   1.2462674e-24   8.5161367e-25
       6.7166000   2.0977117e-24   1.2461689e-24   8.5154284e-25
       6.7168000   2.0975363e-24   1.2460641e-24   8.5147220e-25
       6.7170000   2.0973608e-24   1.2459593e-24   8.5140149e-25
       6.7172000   2.0971915e-24   1.2458608e-24   8.5133070e-25
       6.7174000   2.0970163e-24   1.2457560e-24   8.5126024e-25
       6.7176000   2.0968408e-24   1.2456512e-24   8.5118969e-25
       6.7178000   2.0966718e-24   1.2455528e-24   8.5111903e-25
       6.7180000   2.0964964e-24   1.2454480e-24   8.5104834e-25
       6.7182000   2.0963208e-24   1.2453432e-24   8.5097753e-25
       6.7184000   2.0961519e-24   1.2452448e-24   8.5090710e-25
       6.7186000   2.0959763e-24   1.2451400e-24   8.5083633e-25
       6.7188000   2.0958011e-24   1.2450353e-24   8.5076573e-25
       6.7190000   2.0956319e-24   1.2449369e-24   8.5069493e-25
       6.7192000   2.0954565e-24   1.2448323e-24   8.5062419e-25
       6.7194000   2.0952813e-24   1.2447275e-24   8.5055378e-25
       6.7196000   2.0951121e-24   1.2446291e-24   8.5048297e-25
       6.7198000   2.0949371e-24   1.2445245e-24   8.5041255e-25
       6.7200000   2.0947618e-24   1.2444198e-24   8.5034200e-25
       6.7202000   2.0945865e-24   1.2443152e-24   8.5027127e-25
       6.7204000   2.0944176e-24   1.2442168e-24   8.5020074e-25
       6.7206000   2.0942422e-24   1.2441122e-24   8.5013005e-25
       6.7208000   2.0940671e-24   1.2440077e-24   8.5005938e-25
       6.7210000   2.0938980e-24   1.2439093e-24   8.4998868e-25
       6.7212000   2.0937226e-24   1.2438046e-24   8.4991800e-25
       6.7214000   2.0935476e-24   1.2437002e-24   8.4984740e-25
       6.7216000   2.0933723e-24   1.2435956e-24   8.4977666e-25
       6.7218000   2.0932035e-24   1.2434972e-24   8.4970632e-25
       6.7220000   2.0930283e-24   1.2433928e-24   8.4963548e-25
       6.7222000   2.0928532e-24   1.2432883e-24   8.4956487e-25
       6.7224000   2.0926844e-24   1.2431900e-24   8.4949441e-25
       6.7226000   2.0925093e-24   1.2430855e-24   8.4942375e-25
       6.7228000   2.0923342e-24   1.2429810e-24   8.4935324e-25
       6.7230000   2.0921591e-24   1.2428765e-24   8.4928259e-25
       6.7232000   2.0919901e-24   1.2427783e-24   8.4921184e-25
       6.7234000   2.0918152e-24   1.2426738e-24   8.4914141e-25
       6.7236000   2.0916399e-24   1.2425694e-24   8.4907058e-25
       6.7238000   2.0914650e-24   1.2424649e-24   8.4900007e-25
       6.7240000   2.0912962e-24   1.2423666e-24   8.4892958e-25
       6.7242000   2.0911211e-24   1.2422623e-24   8.4885883e-25
       6.7244000   2.0909462e-24   1.2421580e-24   8.4878821e-25
       6.7246000   2.0907712e-24   1.2420534e-24   8.4871778e-25
       6.7248000   2.0906026e-24   1.2419553e-24   8.4864731e-25
       6.7250000   2.0904275e-24   1.2418509e-24   8.4857658e-25
       6.7252000   2.0902525e-24   1.2417466e-24   8.4850587e-25
       6.7254000   2.0900776e-24   1.2416422e-24   8.4843542e-25
       6.7256000   2.0899088e-24   1.2415441e-24   8.4836472e-25
       6.7258000   2.0897340e-24   1.2414398e-24   8.4829421e-25
       6.7260000   2.0895591e-24   1.2413355e-24   8.4822359e-25
       6.7262000   2.0893840e-24   1.2412311e-24   8.4815290e-25
       6.7264000   2.0892093e-24   1.2411268e-24   8.4808248e-25
       6.7266000   2.0890405e-24   1.2410287e-24   8.4801179e-25
       6.7268000   2.0888660e-24   1.2409245e-24   8.4794150e-25
       6.7270000   2.0886911e-24   1.2408202e-24   8.4787086e-25
       6.7272000   2.0885161e-24   1.2407160e-24   8.4780009e-25
       6.7274000   2.0883415e-24   1.2406117e-24   8.4772974e-25
       6.7276000   2.0881727e-24   1.2405137e-24   8.4765897e-25
       6.7278000   2.0879980e-24   1.2404095e-24   8.4758849e-25
       6.7280000   2.0878230e-24   1.2403052e-24   8.4751784e-25
       6.7282000   2.0876482e-24   1.2402010e-24   8.4744717e-25
       6.7284000   2.0874736e-24   1.2400968e-24   8.4737679e-25
       6.7286000   2.0873050e-24   1.2399989e-24   8.4730610e-25
       6.7288000   2.0871303e-24   1.2398947e-24   8.4723557e-25
       6.7290000   2.0869555e-24   1.2397905e-24   8.4716496e-25
       6.7292000   2.0867809e-24   1.2396863e-24   8.4709462e-25
       6.7294000   2.0866064e-24   1.2395822e-24   8.4702416e-25
       6.7296000   2.0864377e-24   1.2394842e-24   8.4695350e-25
       6.7298000   2.0862632e-24   1.2393802e-24   8.4688306e-25
       6.7300000   2.0860883e-24   1.2392760e-24   8.4681234e-25
       6.7302000   2.0859136e-24   1.2391720e-24   8.4674158e-25
       6.7304000   2.0857392e-24   1.2390679e-24   8.4667129e-25
       6.7306000   2.0855643e-24   1.2389638e-24   8.4660060e-25
       6.7308000   2.0853961e-24   1.2388659e-24   8.4653015e-25
       6.7310000   2.0852214e-24   1.2387619e-24   8.4645951e-25
       6.7312000   2.0850467e-24   1.2386578e-24   8.4638893e-25
       6.7314000   2.0848722e-24   1.2385538e-24   8.4631841e-25
       6.7316000   2.0846979e-24   1.2384498e-24   8.4624808e-25
       6.7318000   2.0845233e-24   1.2383457e-24   8.4617758e-25
       6.7320000   2.0843486e-24   1.2382417e-24   8.4610686e-25
       6.7322000   2.0841803e-24   1.2381438e-24   8.4603646e-25
       6.7324000   2.0840059e-24   1.2380399e-24   8.4596601e-25
       6.7326000   2.0838312e-24   1.2379360e-24   8.4589521e-25
       6.7328000   2.0836568e-24   1.2378321e-24   8.4582472e-25
       6.7330000   2.0834823e-24   1.2377280e-24   8.4575426e-25
       6.7332000   2.0833076e-24   1.2376241e-24   8.4568349e-25
       6.7334000   2.0831334e-24   1.2375202e-24   8.4561327e-25
       6.7336000   2.0829651e-24   1.2374224e-24   8.4554271e-25
       6.7338000   2.0827908e-24   1.2373184e-24   8.4547240e-25
       6.7340000   2.0826164e-24   1.2372146e-24   8.4540174e-25
       6.7342000   2.0824418e-24   1.2371107e-24   8.4533110e-25
       6.7344000   2.0822676e-24   1.2370068e-24   8.4526073e-25
       6.7346000   2.0820931e-24   1.2369029e-24   8.4519019e-25
       6.7348000   2.0819188e-24   1.2367990e-24   8.4511982e-25
       6.7350000   2.0817444e-24   1.2366953e-24   8.4504911e-25
       6.7352000   2.0815698e-24   1.2365913e-24   8.4497849e-25
       6.7354000   2.0814019e-24   1.2364938e-24   8.4490812e-25
       6.7356000   2.0812275e-24   1.2363899e-24   8.4483756e-25
       6.7358000   2.0810532e-24   1.2362861e-24   8.4476714e-25
       6.7360000   2.0808789e-24   1.2361823e-24   8.4469661e-25
       6.7362000   2.0807048e-24   1.2360786e-24   8.4462615e-25
       6.7364000   2.0805306e-24   1.2359747e-24   8.4455586e-25
       6.7366000   2.0803562e-24   1.2358710e-24   8.4448520e-25
       6.7368000   2.0801820e-24   1.2357672e-24   8.4441484e-25
       6.7370000   2.0800078e-24   1.2356635e-24   8.4434431e-25
       6.7372000   2.0798333e-24   1.2355597e-24   8.4427361e-25
       6.7374000   2.0796593e-24   1.2354560e-24   8.4420332e-25
       6.7376000   2.0794850e-24   1.2353523e-24   8.4413264e-25
       6.7378000   2.0793108e-24   1.2352486e-24   8.4406225e-25
       6.7380000   2.0791428e-24   1.2351511e-24   8.4399167e-25
       6.7382000   2.0789685e-24   1.2350474e-24   8.4392111e-25
       6.7384000   2.0787946e-24   1.2349437e-24   8.4385092e-25
       6.7386000   2.0786204e-24   1.2348400e-24   8.4378049e-25
       6.7388000   2.0784464e-24   1.2347364e-24   8.4371007e-25
       6.7390000   2.0782723e-24   1.2346328e-24   8.4363949e-25
       6.7392000   2.0780979e-24   1.2345291e-24   8.4356885e-25
       6.7394000   2.0779240e-24   1.2344255e-24   8.4349846e-25
       6.7396000   2.0777498e-24   1.2343219e-24   8.4342784e-25
       6.7398000   2.0775758e-24   1.2342182e-24   8.4335757e-25
       6.7400000   2.0774017e-24   1.2341146e-24   8.4328707e-25
       6.7402000   2.0772275e-24   1.2340111e-24   8.4321644e-25
       6.7404000   2.0770537e-24   1.2339075e-24   8.4314616e-25
       6.7406000   2.0768795e-24   1.2338039e-24   8.4307556e-25
       6.7408000   2.0767058e-24   1.2337004e-24   8.4300540e-25
       6.7410000   2.0765318e-24   1.2335969e-24   8.4293486e-25
       6.7412000   2.0763576e-24   1.2334933e-24   8.4286428e-25
       6.7414000   2.0761839e-24   1.2333898e-24   8.4279407e-25
       6.7416000   2.0760096e-24   1.2332862e-24   8.4272342e-25
       6.7418000   2.0758359e-24   1.2331828e-24   8.4265309e-25
       6.7420000   2.0756619e-24   1.2330794e-24   8.4258250e-25
       6.7422000   2.0754896e-24   1.2329758e-24   8.4251379e-25
       6.7424000   2.0753174e-24   1.2328724e-24   8.4244503e-25
       6.7426000   2.0751453e-24   1.2327689e-24   8.4237639e-25
       6.7428000   2.0749733e-24   1.2326654e-24   8.4230781e-25
       6.7430000   2.0748009e-24   1.2325620e-24   8.4223887e-25
       6.7432000   2.0746287e-24   1.2324586e-24   8.4217013e-25
       6.7434000   2.0744565e-24   1.2323551e-24   8.4210141e-25
       6.7436000   2.0742844e-24   1.2322517e-24   8.4203268e-25
       6.7438000   2.0741125e-24   1.2321483e-24   8.4196415e-25
       6.7440000   2.0739403e-24   1.2320449e-24   8.4189531e-25
       6.7442000   2.0737681e-24   1.2319415e-24   8.4182656e-25
       6.7444000   2.0735961e-24   1.2318381e-24   8.4175792e-25
       6.7446000   2.0734240e-24   1.2317348e-24   8.4168920e-25
       6.7448000   2.0732520e-24   1.2316315e-24   8.4162056e-25
       6.7450000   2.0730798e-24   1.2315281e-24   8.4155177e-25
       6.7452000   2.0729077e-24   1.2314248e-24   8.4148289e-25
       6.7454000   2.0727358e-24   1.2313214e-24   8.4141438e-25
       6.7456000   2.0725637e-24   1.2312182e-24   8.4134555e-25
       6.7458000   2.0723858e-24   1.2311087e-24   8.4127708e-25
       6.7460000   2.0722136e-24   1.2310054e-24   8.4120825e-25
       6.7462000   2.0720416e-24   1.2309021e-24   8.4113944e-25
       6.7464000   2.0718696e-24   1.2307988e-24   8.4107082e-25
       6.7466000   2.0716977e-24   1.2306956e-24   8.4100209e-25
       6.7468000   2.0715260e-24   1.2305924e-24   8.4093362e-25
       6.7470000   2.0713538e-24   1.2304891e-24   8.4086469e-25
       6.7472000   2.0711818e-24   1.2303859e-24   8.4079588e-25
       6.7474000   2.0710100e-24   1.2302826e-24   8.4072735e-25
       6.7476000   2.0708381e-24   1.2301794e-24   8.4065862e-25
       6.7478000   2.0706664e-24   1.2300763e-24   8.4059009e-25
       6.7480000   2.0704943e-24   1.2299731e-24   8.4052122e-25
       6.7482000   2.0703224e-24   1.2298700e-24   8.4045246e-25
       6.7484000   2.0701506e-24   1.2297668e-24   8.4038385e-25
       6.7486000   2.0699788e-24   1.2296637e-24   8.4031515e-25
       6.7488000   2.0698072e-24   1.2295605e-24   8.4024672e-25
       6.7490000   2.0696290e-24   1.2294512e-24   8.4017779e-25
       6.7492000   2.0694572e-24   1.2293481e-24   8.4010912e-25
       6.7494000   2.0692856e-24   1.2292450e-24   8.4004062e-25
       6.7496000   2.0691137e-24   1.2291418e-24   8.3997182e-25
       6.7498000   2.0689421e-24   1.2290387e-24   8.3990338e-25
       6.7500000   2.0687701e-24   1.2289357e-24   8.3983448e-25
       6.7502000   2.0685984e-24   1.2288326e-24   8.3976575e-25
       6.7504000   2.0684269e-24   1.2287296e-24   8.3969730e-25
       6.7506000   2.0682550e-24   1.2286265e-24   8.3962847e-25
       6.7508000   2.0680835e-24   1.2285235e-24   8.3955997e-25
       6.7510000   2.0679055e-24   1.2284143e-24   8.3949125e-25
       6.7512000   2.0677337e-24   1.2283113e-24   8.3942242e-25
       6.7514000   2.0675623e-24   1.2282083e-24   8.3935399e-25
       6.7516000   2.0673904e-24   1.2281053e-24   8.3928519e-25
       6.7518000   2.0672190e-24   1.2280023e-24   8.3921673e-25
       6.7520000   2.0670473e-24   1.2278994e-24   8.3914794e-25
       6.7522000   2.0668754e-24   1.2277964e-24   8.3907902e-25
       6.7524000   2.0667041e-24   1.2276933e-24   8.3901073e-25
       6.7526000   2.0665262e-24   1.2275843e-24   8.3894194e-25
       6.7528000   2.0663548e-24   1.2274814e-24   8.3887334e-25
       6.7530000   2.0661832e-24   1.2273785e-24   8.3880476e-25
       6.7532000   2.0660114e-24   1.2272755e-24   8.3873598e-25
       6.7534000   2.0658402e-24   1.2271726e-24   8.3866757e-25
       6.7536000   2.0656685e-24   1.2270697e-24   8.3859877e-25
       6.7538000   2.0654971e-24   1.2269668e-24   8.3853028e-25
       6.7540000   2.0653195e-24   1.2268578e-24   8.3846168e-25
       6.7542000   2.0651477e-24   1.2267550e-24   8.3839273e-25
       6.7544000   2.0649764e-24   1.2266520e-24   8.3832441e-25
       6.7546000   2.0648049e-24   1.2265492e-24   8.3825570e-25
       6.7548000   2.0646335e-24   1.2264464e-24   8.3818704e-25
       6.7550000   2.0644620e-24   1.2263436e-24   8.3811843e-25
       6.7552000   2.0642903e-24   1.2262408e-24   8.3804951e-25
       6.7554000   2.0641130e-24   1.2261318e-24   8.3798123e-25
       6.7556000   2.0639417e-24   1.2260290e-24   8.3791268e-25
       6.7558000   2.0637702e-24   1.2259263e-24   8.3784388e-25
       6.7560000   2.0635989e-24   1.2258235e-24   8.3777537e-25
       6.7562000   2.0634272e-24   1.2257208e-24   8.3770647e-25
       6.7564000   2.0632500e-24   1.2256119e-24   8.3763810e-25
       6.7566000   2.0630786e-24   1.2255092e-24   8.3756939e-25
       6.7568000   2.0629073e-24   1.2254064e-24   8.3750090e-25
       6.7570000   2.0627360e-24   1.2253037e-24   8.3743226e-25
       6.7572000   2.0625644e-24   1.2252009e-24   8.3736343e-25
       6.7574000   2.0623934e-24   1.2250983e-24   8.3729504e-25
       6.7576000   2.0622158e-24   1.2249894e-24   8.3722639e-25
       6.7578000   2.0620446e-24   1.2248868e-24   8.3715780e-25
       6.7580000   2.0618734e-24   1.2247841e-24   8.3708923e-25
       6.7582000   2.0617021e-24   1.2246815e-24   8.3702062e-25
       6.7584000   2.0615247e-24   1.2245726e-24   8.3695202e-25
       6.7586000   2.0613534e-24   1.2244701e-24   8.3688335e-25
       6.7588000   2.0611822e-24   1.2243674e-24   8.3681479e-25
       6.7590000   2.0610110e-24   1.2242648e-24   8.3674619e-25
       6.7592000   2.0608397e-24   1.2241622e-24   8.3667752e-25
       6.7594000   2.0606625e-24   1.2240534e-24   8.3660901e-25
       6.7596000   2.0604914e-24   1.2239509e-24   8.3654048e-25
       6.7598000   2.0603200e-24   1.2238484e-24   8.3647162e-25
       6.7600000   2.0601490e-24   1.2237458e-24   8.3640323e-25
       6.7602000   2.0599718e-24   1.2236371e-24   8.3633466e-25
       6.7604000   2.0598005e-24   1.2235346e-24   8.3626595e-25
       6.7606000   2.0596294e-24   1.2234320e-24   8.3619739e-25
       6.7608000   2.0594585e-24   1.2233295e-24   8.3612905e-25
